"Time (s)","w","x","y","z","Direct (°)","Yaw (°)","Pitch (°)","Roll (°)"
1.089141290E-1,2.815934774E-1,1.529898345E-1,1.850567609E-1,9.290065765E-1,1.472893371E2,2.592171207E1,-1.037183174E1,1.438813235E2
1.255800670E-1,2.631579231E-1,1.401891112E-1,1.811758429E-1,9.371607304E-1,1.494849500E2,2.478928148E1,-9.636901337E0,1.465075252E2
1.422460040E-1,2.657200787E-1,1.341387480E-1,1.740058959E-1,9.386807680E-1,1.491805112E2,2.377273018E1,-9.169355954E0,1.464547219E2
1.589119420E-1,2.672829941E-1,1.288613975E-1,1.681540012E-1,9.400418997E-1,1.489946941E2,2.292824908E1,-8.764923624E0,1.464749575E2
1.755778790E-1,2.722871558E-1,1.271679252E-1,1.608424336E-1,9.401158094E-1,1.483991772E2,2.208702830E1,-8.714704046E0,1.459906391E2
1.922438170E-1,2.771491157E-1,1.268511564E-1,1.557903290E-1,9.395884871E-1,1.478197431E2,2.155169217E1,-8.744091822E0,1.454638654E2
2.089097540E-1,2.777186381E-1,1.239821166E-1,1.566795409E-1,9.396554232E-1,1.477518140E2,2.154597685E1,-8.393759509E0,1.454696674E2
2.255756920E-1,2.759430799E-1,1.209152192E-1,1.581245661E-1,9.403358698E-1,1.479635531E2,2.157633891E1,-8.055662589E0,1.457537597E2
2.422416290E-1,2.723134005E-1,1.165783256E-1,1.567245275E-1,9.421742558E-1,1.483960517E2,2.122900637E1,-7.719174375E0,1.463098599E2
2.589075670E-1,2.697255502E-1,1.097189412E-1,1.517765522E-1,9.445495009E-1,1.487041277E2,2.040543198E1,-7.203504386E0,1.468274325E2
2.755735040E-1,2.649546232E-1,1.036791354E-1,1.481276006E-1,9.471578002E-1,1.492714870E2,1.974885496E1,-6.771314477E0,1.475635054E2
2.922394420E-1,2.601250376E-1,9.724307060E-2,1.472981125E-1,9.493060708E-1,1.498450369E2,1.940209177E1,-6.199750145E0,1.482914916E2
3.089053790E-1,2.541315279E-1,9.043534845E-2,1.478690952E-1,9.515110850E-1,1.505557396E2,1.920277262E1,-5.563223660E0,1.491509252E2
3.255713170E-1,2.454576545E-1,8.466920257E-2,1.478996873E-1,9.543098807E-1,1.515822374E2,1.897404539E1,-5.105798145E0,1.502975029E2
3.422372540E-1,2.355825437E-1,8.196751028E-2,1.465238482E-1,9.572423697E-1,1.527480716E2,1.868576590E1,-5.042152866E0,1.515178484E2
3.589031920E-1,2.292139036E-1,8.280684054E-2,1.439586729E-1,9.591037035E-1,1.534984092E2,1.838896101E1,-5.327358775E0,1.522553288E2
3.755691290E-1,2.221323719E-1,8.471221477E-2,1.405383646E-1,9.611087441E-1,1.543313832E2,1.801964023E1,-5.762150589E0,1.530581037E2
3.922350670E-1,2.167779830E-1,8.577590436E-2,1.354542077E-1,9.629651904E-1,1.549602828E2,1.744366810E1,-6.111949155E0,1.536881693E2
4.089010040E-1,2.097003497E-1,8.580138534E-2,1.294887811E-1,9.653478861E-1,1.557904149E2,1.672498560E1,-6.393067274E0,1.545476240E2
4.255669420E-1,2.005380116E-1,8.549921960E-2,1.241063848E-1,9.680247903E-1,1.568631555E2,1.604701137E1,-6.647153025E0,1.556540780E2
4.422328790E-1,1.922618795E-1,8.586114645E-2,1.187152565E-1,9.703452587E-1,1.578303712E2,1.538800642E1,-6.948726636E0,1.566455201E2
4.588988170E-1,1.811384008E-1,8.593118191E-2,1.127375066E-1,9.731880426E-1,1.591278491E2,1.463063642E1,-7.262316678E0,1.579789824E2
4.755647540E-1,1.702212010E-1,8.478620648E-2,1.067717895E-1,9.759281874E-1,1.603986392E2,1.384355455E1,-7.419948338E0,1.593100091E2
4.922306920E-1,1.584262087E-1,8.270868659E-2,1.029942930E-1,9.784950614E-1,1.617688809E2,1.327889127E1,-7.424873435E0,1.607408604E2
5.088966290E-1,1.455061328E-1,8.183890581E-2,1.009516492E-1,9.807849526E-1,1.632668214E2,1.293072531E1,-7.536315385E0,1.622674072E2
5.255625670E-1,1.332596843E-1,8.430097252E-2,9.931205958E-2,9.824827313E-1,1.646840042E2,1.269443343E1,-8.000394082E0,1.636602176E2
5.422285040E-1,1.209192444E-1,9.027802199E-2,9.750840068E-2,9.837278724E-1,1.661096845E2,1.248929294E1,-8.860933961E0,1.650132717E2
5.588944420E-1,1.052188618E-1,9.824056923E-2,9.650783986E-2,9.848675132E-1,1.679204475E2,1.235702147E1,-9.973868052E0,1.667213825E2
5.755603790E-1,9.091981518E-2,1.070369780E-1,9.515936673E-2,9.855056405E-1,1.695669488E2,1.218207007E1,-1.116688423E1,1.682625939E2
5.922263170E-1,7.880432167E-2,1.127491072E-1,8.974261582E-2,9.864196777E-1,1.709603172E2,1.148940997E1,-1.202225815E1,1.696509015E2
6.088922540E-1,7.068490183E-2,1.227795109E-1,8.123243600E-2,9.865749478E-1,1.718933467E2,1.051945073E1,-1.334291348E1,1.705700315E2
6.255581920E-1,6.883008213E-2,1.298516691E-1,6.984988600E-2,9.866721630E-1,1.721064124E2,9.246163558E0,-1.427797567E1,1.708585014E2
6.422241290E-1,6.193760663E-2,1.313801557E-1,5.687430128E-2,9.877592325E-1,1.728979272E2,7.639433114E0,-1.462541629E1,1.718421256E2
6.588900670E-1,5.169403593E-2,1.357747763E-1,4.773507640E-2,9.882379770E-1,1.740736584E2,6.450967681E0,-1.527311044E1,1.731454235E2
6.755560040E-1,4.223553744E-2,1.416701823E-1,4.242364690E-2,9.881021976E-1,1.751587238E2,5.721204182E0,-1.604460784E1,1.742978756E2
6.922219420E-1,3.273693232E-2,1.495431662E-1,4.069466516E-2,9.873748422E-1,1.762479535E2,5.409907388E0,-1.701642777E1,1.753921506E2
7.088878790E-1,2.477530889E-2,1.572365314E-1,4.322322085E-2,9.863035083E-1,1.771606682E2,5.613029717E0,-1.794019673E1,1.762354334E2
7.255538170E-1,1.742246862E-2,1.660465151E-1,4.930405691E-2,9.847304821E-1,1.780034311E2,6.246510465E0,-1.898400181E1,1.769273683E2
7.422197540E-1,8.594380228E-3,1.734590232E-1,5.618831143E-2,9.831993580E-1,1.790151444E2,6.930430097E0,-1.988441639E1,1.777821004E2
7.588856920E-1,1.534400354E-3,1.822875291E-1,6.223272905E-2,9.812726378E-1,1.798241706E2,7.549300484E0,-2.095021097E1,1.784230740E2
7.755516290E-1,6.022227640E-3,-1.867041886E-1,-6.660022587E-2,-9.801375866E-1,1.793098994E2,7.927424314E0,-2.151801485E1,1.791953921E2
7.922175670E-1,1.572076686E-2,-1.904862225E-1,-7.007199526E-2,-9.790596366E-1,1.781984586E2,8.138242302E0,-2.203654569E1,-1.797473365E2
8.088835040E-1,3.006645778E-2,-1.934915483E-1,-6.914853305E-2,-9.782001376E-1,1.765541184E2,7.691307659E0,-2.250133887E1,-1.780111640E2
8.255494420E-1,4.755641109E-2,-1.954618841E-1,-6.452734768E-2,-9.774299264E-1,1.745483805E2,6.702003449E0,-2.284490498E1,-1.757845698E2
8.422153790E-1,6.890501286E-2,-1.964122504E-1,-5.781513825E-2,-9.763870835E-1,1.720978056E2,5.352254098E0,-2.304887937E1,-1.730185646E2
8.588813170E-1,9.176650055E-2,-1.973001212E-1,-4.957856983E-2,-9.747787118E-1,1.694695185E2,3.770326386E0,-2.318786424E1,-1.700177414E2
8.755472540E-1,1.146524205E-1,-1.969930381E-1,-3.824390098E-2,-9.729264975E-1,1.668328448E2,1.821806036E0,-2.308454597E1,-1.669302791E2
8.922131920E-1,1.381421471E-1,-1.959145814E-1,-2.214853466E-2,-9.705893397E-1,1.641192909E2,-6.916665364E-1,-2.273220352E1,-1.636601696E2
9.088791290E-1,1.657316717E-1,-1.924546510E-1,-1.912667532E-3,-9.672076106E-1,1.609205172E2,-3.713281009E0,-2.189588755E1,-1.598349848E2
9.255450670E-1,1.952750573E-1,-1.863397509E-1,2.323987707E-2,-9.626032710E-1,1.574784158E2,-7.205861074E0,-2.046689799E1,-1.557624833E2
9.422110040E-1,2.276978983E-1,-1.765360087E-1,5.173956975E-2,-9.561964869E-1,1.536768496E2,-1.088840644E1,-1.830312509E1,-1.514521158E2
9.588769420E-1,2.588881108E-1,-1.668102145E-1,8.507212996E-2,-9.475832582E-1,1.499918064E2,-1.491011720E1,-1.578836276E1,-1.473594822E2
9.755428790E-1,2.847700674E-1,-1.576261073E-1,1.227633581E-1,-9.375442266E-1,1.469097902E2,-1.917393610E1,-1.304076434E1,-1.439967759E2
9.922088170E-1,3.053517462E-1,-1.471719146E-1,1.661899835E-1,-9.260030389E-1,1.444413459E2,-2.380424000E1,-9.850064671E0,-1.414187915E2
1.008874754E0,3.221121990E-1,-1.364087760E-1,2.144358158E-1,-9.119504690E-1,1.424185801E2,-2.881264395E1,-6.352862100E0,-1.394588489E2
1.025540692E0,3.355186756E-1,-1.297948956E-1,2.656362355E-1,-8.944371939E-1,1.407918372E2,-3.427092088E1,-3.091743985E0,-1.379226979E2
1.042206629E0,3.465870616E-1,-1.272260249E-1,3.186606765E-1,-8.730099201E-1,1.394425879E2,-4.013405447E1,-7.172451567E-2,-1.366674033E2
1.058872567E0,3.556332805E-1,-1.286379695E-1,3.719552755E-1,-8.477184176E-1,1.383354767E2,-4.629470113E1,2.663023618E0,-1.356207763E2
1.075538504E0,3.618971908E-1,-1.321799755E-1,4.228907228E-1,-8.201965094E-1,1.375664904E2,-5.242366356E1,5.120969001E0,-1.349051730E2
1.092204442E0,3.653884015E-1,-1.362111270E-1,4.701113999E-1,-7.917910814E-1,1.371370249E2,-5.831874617E1,7.345080489E0,-1.345581815E2
1.108870379E0,3.688945626E-1,-1.416758299E-1,5.114368796E-1,-7.630708218E-1,1.367050835E2,-6.373639973E1,9.271631417E0,-1.341702444E2
1.125536317E0,3.748294953E-1,-1.501679271E-1,5.445207357E-1,-7.351527810E-1,1.359724500E2,-6.838170331E1,1.080179724E1,-1.333191016E2
1.142202254E0,3.816385603E-1,-1.616872996E-1,5.695777535E-1,-7.097819448E-1,1.351295683E2,-7.221918433E1,1.184239057E1,-1.321206209E2
1.208866160E0,4.031503014E-1,-2.073799223E-1,5.821570754E-1,-6.749492884E-1,1.324494653E2,-7.608221228E1,1.092079005E1,-1.268547847E2
1.225532150E0,4.097843508E-1,-2.182676047E-1,5.823587179E-1,-6.673038006E-1,1.316174225E2,-7.667608875E1,1.071835401E1,-1.253783601E2
1.242198139E0,4.169244585E-1,-2.298009545E-1,5.774578452E-1,-6.632555723E-1,1.307188652E2,-7.663795080E1,1.017638454E1,-1.237430516E2
1.258864129E0,4.246895164E-1,-2.396833152E-1,5.671426654E-1,-6.637318134E-1,1.297379752E2,-7.581211284E1,9.412907170E0,-1.221094593E2
1.275530119E0,4.331482485E-1,-2.440266311E-1,5.553840399E-1,-6.666199565E-1,1.286649551E2,-7.449859606E1,8.962106310E0,-1.207915974E2
1.292196108E0,4.398571900E-1,-2.452325225E-1,5.433816910E-1,-6.716569066E-1,1.278104607E2,-7.299582402E1,8.545597688E0,-1.198879595E2
1.308862098E0,4.437279808E-1,-2.481983006E-1,5.294237137E-1,-6.791270971E-1,1.273160319E2,-7.139519516E1,7.627021574E0,-1.191644164E2
1.325528087E0,4.507052478E-1,-2.590817213E-1,5.063909292E-1,-6.879750490E-1,1.264221181E2,-6.922696632E1,5.738167281E0,-1.175031165E2
1.342194077E0,4.612811573E-1,-2.748086751E-1,4.750643075E-1,-6.971468925E-1,1.250603816E2,-6.653471337E1,3.159308597E0,-1.150901827E2
1.358860067E0,4.757105176E-1,-2.937777638E-1,4.395157993E-1,-7.030078173E-1,1.231887563E2,-6.382931428E1,2.926937636E-1,-1.120115287E2
1.375526056E0,4.909781267E-1,-3.132374585E-1,4.035504460E-1,-7.056697607E-1,1.211902174E2,-6.140852665E1,-2.625955189E0,-1.087829305E2
1.392192046E0,5.012007419E-1,-3.288746178E-1,3.768758774E-1,-7.061188817E-1,1.198410554E2,-5.990076783E1,-4.971960673E0,-1.063999720E2
1.408858035E0,5.023218990E-1,-3.357549310E-1,3.681163788E-1,-7.067047954E-1,1.196925303E2,-5.958215253E1,-6.011806971E0,-1.057461124E2
1.425524025E0,5.004379576E-1,-3.383272290E-1,3.654712737E-1,-7.081859112E-1,1.199420414E2,-5.952230090E1,-6.511680169E0,-1.057801857E2
1.442190014E0,4.976056980E-1,-3.362511992E-1,3.658328652E-1,-7.109782100E-1,1.203165595E2,-5.936762080E1,-6.549036264E0,-1.062887131E2
1.458856004E0,4.957574202E-1,-3.320727050E-1,3.663671911E-1,-7.139519453E-1,1.205605842E2,-5.905748559E1,-6.367741166E0,-1.068395082E2
1.475521994E0,4.973308979E-1,-3.289269507E-1,3.636951447E-1,-7.156779170E-1,1.203528596E2,-5.852137760E1,-6.261007274E0,-1.068981811E2
1.492187983E0,5.018098413E-1,-3.272906244E-1,3.588608801E-1,-7.157419920E-1,1.197603789E2,-5.790480455E1,-6.220292270E0,-1.064875102E2
1.508853973E0,5.070811733E-1,-3.242134750E-1,3.526869118E-1,-7.164958119E-1,1.190607940E2,-5.703587488E1,-6.137417404E0,-1.060870111E2
1.525519962E0,5.100303182E-1,-3.165531158E-1,3.484686911E-1,-7.198838592E-1,1.186683015E2,-5.597536702E1,-5.756662735E0,-1.063045077E2
1.542185952E0,5.112493448E-1,-3.059262335E-1,3.476687968E-1,-7.239887118E-1,1.185058323E2,-5.502149944E1,-5.018844806E0,-1.069287875E2
1.558851942E0,5.115408438E-1,-2.934854627E-1,3.513023853E-1,-7.271718383E-1,1.184669616E2,-5.439242230E1,-3.865681203E0,-1.077628927E2
1.575517931E0,5.119567297E-1,-2.780463398E-1,3.599795997E-1,-7.287010550E-1,1.184114907E2,-5.408363696E1,-2.099636287E0,-1.087474219E2
1.592183921E0,5.127301256E-1,-2.590625286E-1,3.730920255E-1,-7.285580039E-1,1.183082925E2,-5.402830221E1,2.926042151E-1,-1.098764648E2
1.608849910E0,5.128614148E-1,-2.366939336E-1,3.905441761E-1,-7.269280553E-1,1.182907684E2,-5.427933136E1,3.237281050E0,-1.112523787E2
1.625515900E0,5.129036584E-1,-2.133968771E-1,4.111865163E-1,-7.227151990E-1,1.182851295E2,-5.493697611E1,6.508338082E0,-1.126602621E2
1.642181889E0,5.135790606E-1,-1.914836913E-1,4.317632616E-1,-7.163456082E-1,1.181949507E2,-5.581087741E1,9.738526230E0,-1.138896748E2
1.658847879E0,5.153538412E-1,-1.711272448E-1,4.503265321E-1,-7.087537646E-1,1.179577817E2,-5.666711138E1,1.280190139E1,-1.148794065E2
1.675513869E0,5.190063862E-1,-1.517682225E-1,4.667365551E-1,-6.998255253E-1,1.174687492E2,-5.741429912E1,1.578664477E1,-1.155610173E2
1.692179858E0,5.252129025E-1,-1.330480874E-1,4.802305996E-1,-6.898030043E-1,1.166348463E2,-5.789588014E1,1.871691858E1,-1.158460414E2
1.708845848E0,5.332562648E-1,-1.136001274E-1,4.904078841E-1,-6.798771024E-1,1.155485346E2,-5.795821886E1,2.162670683E1,-1.158597533E2
1.725511837E0,5.418920347E-1,-9.445890039E-2,4.983370006E-1,-6.701423526E-1,1.143749381E2,-5.777869018E1,2.442412731E1,-1.157007199E2
1.742177827E0,5.518531762E-1,-7.795161009E-2,5.045253634E-1,-6.594207883E-1,1.130115166E2,-5.749755559E1,2.700331331E1,-1.151575278E2
1.758843817E0,5.634839248E-1,-6.184648722E-2,5.082058311E-1,-6.483731270E-1,1.114058431E2,-5.685799380E1,2.950716732E1,-1.142410155E2
1.775509806E0,5.766019304E-1,-4.364828393E-2,5.093280673E-1,-6.373460293E-1,1.095762126E2,-5.569195450E1,3.212180793E1,-1.130244194E2
1.792175796E0,5.895193697E-1,-2.223189734E-2,5.094851255E-1,-6.264164448E-1,1.077541827E2,-5.416597533E1,3.494919438E1,-1.117661125E2
1.808841785E0,6.011933403E-1,2.128285356E-3,5.081422329E-1,-6.167280674E-1,1.060891755E2,-5.223524279E1,3.785088807E1,-1.105462327E2
1.825507775E0,6.129104455E-1,2.805607393E-2,5.029711723E-1,-6.087476015E-1,1.043995081E2,-4.956713672E1,4.059520752E1,-1.089916213E2
1.842173764E0,6.259317373E-1,5.447499081E-2,4.922726154E-1,-6.024197936E-1,1.024987856E2,-4.585933181E1,4.299164712E1,-1.067239733E2
1.858839754E0,6.377462644E-1,8.362263441E-2,4.782478809E-1,-5.979681611E-1,1.007520627E2,-4.135695281E1,4.523564311E1,-1.041857540E2
1.875505744E0,6.455820928E-1,1.198883727E-1,4.650097191E-1,-5.938152075E-1,9.958133434E1,-3.641633826E1,4.796936720E1,-1.018686610E2
1.892171733E0,6.505000376E-1,1.620435864E-1,4.556063414E-1,-5.856743455E-1,9.884137364E1,-3.123660276E1,5.149496299E1,-9.935327985E1
1.908837723E0,6.538657789E-1,2.070280015E-1,4.486250877E-1,-5.730047822E-1,9.833259369E1,-2.543606640E1,5.548089271E1,-9.599629956E1
1.925503712E0,6.574365464E-1,2.487888336E-1,4.377402365E-1,-5.605932474E-1,9.779067791E1,-1.836563574E1,5.870581354E1,-9.129758051E1
1.942169702E0,6.599073822E-1,2.841204107E-1,4.218310118E-1,-5.530428886E-1,9.741438077E1,-1.074513210E1,6.057509466E1,-8.621810244E1
1.958835692E0,6.597169402E-1,3.159442246E-1,4.051008523E-1,-5.484943986E-1,9.744342277E1,-3.336267647E0,6.177425922E1,-8.147691912E1
1.975501681E0,6.541010564E-1,3.489104211E-1,3.959535956E-1,-5.418801308E-1,9.829695522E1,3.530115361E0,6.365298764E1,-7.708762060E1
1.992167671E0,6.434005878E-1,3.854826987E-1,3.975986242E-1,-5.285395980E-1,9.990827461E1,1.108447688E1,6.679720462E1,-7.148334173E1
2.008833660E0,6.297297376E-1,4.236197174E-1,4.067094326E-1,-5.085019469E-1,1.019396282E2,2.112965079E1,7.057143671E1,-6.280361513E1
2.025499650E0,6.170711653E-1,4.560424387E-1,4.193618000E-1,-4.851640463E-1,1.037948610E2,3.386411349E1,7.375267929E1,-5.062237950E1
2.042165639E0,6.110745888E-1,4.769150913E-1,4.306806326E-1,-4.622272551E-1,1.046655133E2,4.668946548E1,7.529425144E1,-3.737985496E1
2.058831629E0,6.105782064E-1,4.878410399E-1,4.387142658E-1,-4.435483813E-1,1.047373544E2,5.604515233E1,7.558107067E1,-2.714165350E1
2.075497619E0,6.076737289E-1,4.975950122E-1,4.464274049E-1,-4.287591577E-1,1.051570244E2,6.442689096E1,7.575706343E1,-1.819173992E1
2.092163608E0,5.991210830E-1,5.092427731E-1,4.550909102E-1,-4.178731740E-1,1.063860485E2,7.371983247E1,7.614549023E1,-8.939531649E0
2.108829598E0,5.842007679E-1,5.218083858E-1,4.652264118E-1,-4.122982621E-1,1.085069040E2,8.430069351E1,7.686885897E1,9.554327627E-1
2.125495587E0,5.659047477E-1,5.312181115E-1,4.762004018E-1,-4.132702649E-1,1.110697156E2,9.493234567E1,7.797077839E1,1.055859387E1
2.142161577E0,5.481607147E-1,5.354557037E-1,4.869689047E-1,-4.191280305E-1,1.135181568E2,1.049361640E2,7.933419643E1,1.957243069E1
2.158827567E0,5.330629736E-1,5.352483988E-1,4.976554513E-1,-4.262535274E-1,1.155747157E2,1.150135066E2,8.070379758E1,2.899320560E1
2.175493556E0,5.214908795E-1,5.314803720E-1,5.056873560E-1,-4.357248843E-1,1.171353800E2,1.239059431E2,8.212993387E1,3.735078048E1
2.192159546E0,5.145771677E-1,5.249791145E-1,5.083118677E-1,-4.485825598E-1,1.180616071E2,1.288963022E2,8.378587686E1,4.172700035E1
2.208825535E0,5.085618446E-1,5.225269794E-1,5.081276298E-1,-4.584067166E-1,1.188638353E2,1.335865688E2,8.480253231E1,4.563744252E1
2.225491525E0,5.029676796E-1,5.237022638E-1,5.090177059E-1,-4.622341692E-1,1.196069298E2,1.398742774E2,8.499367488E1,5.136824020E1
2.242157514E0,4.982373272E-1,5.259215236E-1,5.149581432E-1,-4.582403600E-1,1.202330983E2,1.480444078E2,8.434872593E1,5.970999342E1
2.258823504E0,4.898275196E-1,5.320799947E-1,5.315279365E-1,-4.409511685E-1,1.213415089E2,1.582007488E2,8.187278221E1,7.097677666E1
2.275489494E0,4.783935079E-1,5.404716134E-1,5.508679748E-1,-4.190161824E-1,1.228389361E2,1.638158746E2,7.852051603E1,7.783457993E1
2.292155483E0,4.676787093E-1,5.493670106E-1,5.667892098E-1,-3.977719247E-1,1.242325565E2,1.656526527E2,7.528381644E1,8.069941235E1
2.308821473E0,4.605926209E-1,5.575718880E-1,5.777041316E-1,-3.784520626E-1,1.251492903E2,1.652119668E2,7.259246289E1,8.114268207E1
2.325487462E0,4.585166886E-1,5.652216077E-1,5.838027000E-1,-3.598074317E-1,1.254171330E2,1.629679595E2,7.040870915E1,7.979165865E1
2.342153452E0,4.631172051E-1,5.730153918E-1,5.830202699E-1,-3.424371183E-1,1.248231226E2,1.586633692E2,6.882110053E1,7.628641825E1
2.358819442E0,4.714401810E-1,5.786181688E-1,5.789903998E-1,-3.282000721E-1,1.237443550E2,1.540461477E2,6.777774111E1,7.243921621E1
2.375485431E0,4.813251696E-1,5.821886063E-1,5.716685057E-1,-3.202774227E-1,1.224560265E2,1.496294605E2,6.740453233E1,6.843314360E1
2.392151421E0,4.956322883E-1,5.821754336E-1,5.595765114E-1,-3.198351562E-1,1.205770944E2,1.442228557E2,6.798545308E1,6.317407548E1
2.408817410E0,5.133100413E-1,5.791929960E-1,5.436716080E-1,-3.247606158E-1,1.182308749E2,1.373427395E2,6.912215372E1,5.626718180E1
2.425483400E0,5.293927869E-1,5.781583786E-1,5.255309939E-1,-3.305954337E-1,1.160711259E2,1.298492359E2,6.983398559E1,4.836336823E1
2.442149389E0,5.414335749E-1,5.803337693E-1,5.063656569E-1,-3.371293843E-1,1.144374362E2,1.230007117E2,6.998815078E1,4.058930396E1
2.458815379E0,5.534176131E-1,5.813992620E-1,4.837926328E-1,-3.487814963E-1,1.127964142E2,1.152230766E2,7.022717720E1,3.145091741E1
2.475481369E0,5.661656210E-1,5.814210176E-1,4.571942687E-1,-3.638399243E-1,1.110334534E2,1.061250305E2,7.018358988E1,2.066871378E1
2.492147358E0,5.803583486E-1,5.803956985E-1,4.275972843E-1,-3.787949085E-1,1.090484982E2,9.642726396E1,6.939375464E1,9.267376188E0
2.508813348E0,5.941340072E-1,5.767539144E-1,4.024616778E-1,-3.903643191E-1,1.070981559E2,8.833944032E1,6.820537123E1,5.945331601E-2
2.525479337E0,6.034551859E-1,5.695160627E-1,3.888494670E-1,-4.003615677E-1,1.057644801E2,8.259071088E1,6.771834149E1,-6.099606742E0
2.542145327E0,6.063007340E-1,5.676389337E-1,3.837644458E-1,-4.036214948E-1,1.053550002E2,8.084225955E1,6.745458029E1,-8.059095871E0
2.558811317E0,6.051290717E-1,5.674719214E-1,3.855369985E-1,-4.039252996E-1,1.055237393E2,8.111514173E1,6.767315425E1,-7.759524298E0
2.575477306E0,6.038785868E-1,5.624169707E-1,3.894160092E-1,-4.091124237E-1,1.057036221E2,7.992370456E1,6.851344082E1,-8.806967298E0
2.592143296E0,6.040974903E-1,5.536887050E-1,3.888383508E-1,-4.210698009E-1,1.056721482E2,7.610751138E1,6.940263718E1,-1.283393502E1
2.608809285E0,6.051100222E-1,5.458285213E-1,3.822722733E-1,-4.356386065E-1,1.055264812E2,7.113956534E1,6.975168599E1,-1.851615935E1
2.625475275E0,6.072849265E-1,5.369927287E-1,3.732862473E-1,-4.511110783E-1,1.052131133E2,6.537325576E1,6.969670152E1,-2.506519750E1
